Time (msec),Temperature (K),Pressure (bar),Volume (cm3)
0.0,363.0,0.6427580151300001,1.0
0.9489266842105265,363.0,0.6427580151300001,1.0
1.897853368421053,363.0,0.6427580151300001,1.0
2.8467800526315794,363.0,0.6427580151300001,1.0
3.795706736842106,363.0,0.6427580151300001,1.0
4.744633421052632,363.0,0.6427580151300001,1.0
5.693560105263159,363.0,0.6427580151300001,1.0
6.642486789473685,363.0,0.6427580151300001,1.0
7.591413473684212,363.0,0.6427580151300001,1.0
8.540340157894738,363.0,0.6427580151300001,1.0
9.489266842105264,363.0,0.6427580151300001,1.0
10.438193526315791,363.0,0.6427580151300001,1.0
11.387120210526318,363.0,0.6427580151300001,1.0
12.336046894736844,363.0,0.6427580151300001,1.0
13.28497357894737,363.0,0.6427580151300001,1.0
14.233900263157897,363.0,0.6427580151300001,1.0
15.182826947368424,363.0,0.6427580151300001,1.0
16.131753631578952,363.0,0.6427580151300001,1.0
17.080680315789476,363.0,0.6427580151300001,1.0
18.029607000000002,363.0,0.6427580151300001,1.0
19.029607000000006,362.9863814684637,0.642663566175891,1.0001094427198043
20.029607000000006,362.97276484761886,0.6425691412732476,1.0002188854396086
21.029607000000002,362.9591501369946,0.642474740413342,1.000328328159413
22.029607000000002,362.9455373361206,0.642380363587452,1.0004377708792174
23.029607000000006,362.93192644452745,0.6422860107868593,1.0005472135990217
24.029607000000002,362.9183174617441,0.6421916820028479,1.000656656318826
25.029607000000002,362.9047103873004,0.6420973772267065,1.0007660990386302
26.029607000000002,362.89110522072747,0.6420030964497297,1.0008755417584347
27.029607000000006,362.87750196155446,0.6419088396632132,1.000984984478239
28.029607000000006,362.8639006093131,0.6418146068584606,1.0010944271980433
29.029607000000006,362.8503011635334,0.641720398026776,1.0012038699178476
30.029607000000006,362.8367036237464,0.6416262131594698,1.0013133126376519
31.02960700000001,362.8231079894823,0.6415320522478538,1.0014227553574562
32.029607000000006,362.8095142602734,0.6414379152832478,1.0015321980772607
33.02960700000001,362.7959224356504,0.6413438022569733,1.001641640797065
34.02960700000001,362.782332515145,0.641249713160356,1.0017510835168693
34.52773500000001,362.7755637579333,0.6412028537655773,1.0018056
35.52773500000001,362.8459805176926,0.6416904747593755,1.0012386355826581
36.52773500000001,362.9164484235523,0.6421787388122975,1.000671671165316
37.52773500000001,362.9869675407769,0.642667647133554,1.0001047067479742
38.52773500000001,363.0575379347503,0.6431572009353114,0.9995377423306323
39.52773500000001,363.1281596709742,0.6436474014326966,0.9989707779132904
40.52773500000001,363.19883281507407,0.6441382498438158,0.9984038134959484
41.52773500000001,363.26955743279234,0.6446297473897518,0.9978368490786065
42.527735000000014,363.3403335899951,0.6451218952945832,0.9972698846612646
43.527735000000014,363.4111613526679,0.6456146947853866,0.9967029202439227
44.527735000000014,363.48204078691737,0.6461081470922473,0.9961359558265808
45.527735000000014,363.55297195897316,0.6466022534482708,0.9955689914092388
46.527735000000014,363.62395493518625,0.6470970150895899,0.9950020269918969
47.527735000000014,363.69498978202915,0.6475924332553727,0.994435062574555
48.527735000000014,363.766076566096,0.6480885091878316,0.9938680981572131
49.527735000000014,363.8372153541067,0.6485852441322393,0.9933011337398712
49.789945,363.85587726976667,0.648715602212356,0.99315247
50.054581,364.9851661488904,0.6566420116644119,0.98420921
50.53073700000001,358.6229959252564,0.6129529448848854,1.0359812
51.416277,367.155208759092,0.6720849971738094,0.96731154
52.416277,366.23235202751005,0.6654833570960781,0.97445184731863
53.41627700000001,365.31811825566103,0.6589933153106327,0.9815921546372601
54.41627700000001,364.41236693023626,0.6526122023968043,0.9887324619558902
54.568315000000005,364.2753925106358,0.6516514067944226,0.98981806
55.043032000000004,366.9214159594819,0.670407761112942,0.96911408
55.545173000000005,358.90123099024595,0.6148149447353547,1.033645
56.078238,361.1641559562629,0.6301227723818702,1.0148932
57.078238000000006,362.0571681874406,0.6362445786654348,1.0076133929324151
58.078238000000006,362.9584932394847,0.6424702008273514,1.0003335858648303
59.078238000000006,363.8682679417148,0.6488021659815901,0.9930537787972455
60.078238000000006,364.7866323793743,0.6552430817401058,0.9857739717296607
61.078238000000006,365.7137299954865,0.6617956393916042,0.978494164662076
62.078238000000006,366.64970769666405,0.6684626172304753,0.9712143575944912
62.579581999999995,367.12234355270385,0.6718490245794652,0.96756467
63.579581999999995,366.9282219964894,0.6704565419370898,0.9690615443833402
64.579582,366.7344841476129,0.6690690545296749,0.9705584187666804
64.789066,366.6939476533402,0.6687790285505432,0.97087199
65.27027100000001,358.11342622099454,0.609554183193655,1.0402774
66.27027100000001,358.92776826431805,0.6149927666866714,1.0334225328883246
67.27027100000001,359.74907282444417,0.6205159914059111,1.0265676657766492
67.712171,360.1142526732277,0.6229841581059045,1.0235385
68.08915,363.1699237683952,0.6439374330169257,0.99863568
69.08915,363.55657342625085,0.6466273503963065,0.9955402133417883
70.08915,363.94476739943826,0.649336802961357,0.9924447466835765
71.08915,364.33451655188844,0.6520659935202586,0.9893492800253648
72.08915,364.72583185756883,0.654815127624892,0.9862538133671531
73.08915,365.11872440194105,0.6575844136166537,0.9831583467089414
74.08915,365.51320538344163,0.6603740626731861,0.9800628800507296
75.08915,365.9092861149962,0.6631842888560526,0.9769674133925179
76.08915,366.3069780255409,0.6660153091593374,0.9738719467343062
77.08915,366.70629266158863,0.6688673435592558,0.9707764800760945
77.424912,366.84073327041096,0.6698296995727651,0.96973714
78.025015,358.2865174458316,0.6107070317897227,1.0388155
78.279716,363.40347202931656,0.6455611817706974,0.99676445
78.530406,363.06749601891727,0.6432263057990729,0.99945777
78.78239300000001,358.4482282650351,0.611785613252897,1.0374521
79.145422,360.2879142829131,0.6241605734190009,1.022102
79.802504,368.1445650764096,0.6792188963891176,0.95973097
80.802504,359.647575570935,0.6198313480689327,1.0274116263613193
80.910796,358.7706116570393,0.6139402705423193,1.0347409
81.25478,363.3411855831252,0.6451278228663548,0.99726306
82.25478,364.95472451313907,0.6564273610806938,0.9844489297262284
83.25478,366.59540631598634,0.6680744053122647,0.971634799452457
84.22514000000001,368.21417491808137,0.6797230410619217,0.95920048
85.22514000000001,363.77217180298464,0.6481310598353802,0.9938195015086024
85.481707,362.66438473281613,0.64043355151944,1.0027016
86.096859,362.863889953726,0.6418145413371449,1.0010945
86.695576,366.7270929596351,0.669016168231488,0.97061558
87.091922,374.5769403967274,0.7270523865192362,0.91225491
88.091922,381.9946025986497,0.785434022511613,0.8611690099534559
89.09192200000001,389.9961850344462,0.852455382658405,0.8100831099069117
90.09192200000001,398.6677260691219,0.9300617322718441,0.7589972098603676
90.191922,399.57559201632614,0.9384964624377113,0.753888619855713
90.29192200000001,400.4913096444237,0.9470648526802192,0.7487800298510584
90.39192200000001,401.4149993718777,0.9557699442168024,0.7436714398464038
90.49192200000002,402.3467842904777,0.9646148688177129,0.7385628498417494
90.529522,402.69925524214926,0.9679773914057815,0.73664202
90.62952200000001,405.16309690268196,0.9917401032279249,0.72339063602655
90.729522,407.6848933082515,1.0165341580305487,0.7101392520530999
90.81999,410.018281919128,1.0399075689480346,0.69815099
90.91999000000001,411.4766504078103,1.0547292962854882,0.6907884420885834
91.01999,412.9548497254609,1.06992175214508,0.6834258941771666
91.11999000000002,414.45336043338784,1.0854983072285667,0.6760633462657499
91.21999000000001,415.9726800268708,1.101472965935811,0.6687007983543333
91.31999000000002,417.5133237235818,1.1178604037498954,0.6613382504429166
91.41999000000003,419.0758252978802,1.1346760072717663,0.6539757025314998
91.51999000000002,420.66073796418846,1.1519359171243642,0.6466131546200832
91.61999000000003,422.2686353129301,1.1696570739672305,0.6392506067086665
91.71999000000002,423.9001123028011,1.187857267885853,0.6318880587972499
91.81999000000003,425.55578631345946,1.2065551914458232,0.6245255108858332
91.91999000000004,427.2362982630721,1.2257704967305894,0.6171629629744164
92.01999000000004,428.9423137955253,1.2455238567134244,0.6098004150629998
92.11999000000004,430.6745245425518,1.2658370313498546,0.6024378671515831
92.203272,432.13765388851294,1.2831979824572224,0.59630619
92.303272,434.0307511855041,1.305939607126566,0.5884889097406621
92.40327200000002,435.95581619547943,1.329391030552686,0.5806716294813242
92.50327200000001,437.9138154750703,1.3535842984956914,0.5728543492219864
92.60327200000002,439.90575823861167,1.3785533638047889,0.5650370689626486
92.70327200000001,441.93269885426326,1.4043342281237436,0.5572197887033107
92.80327200000002,443.9957395232317,1.430965096284169,0.5494025084439729
92.90327200000003,446.096033158357,1.4584865447217714,0.541585228184635
93.00327200000002,448.2347864799826,1.4869417054125975,0.5337679479252971
93.10327200000003,450.4132633489592,1.5163764670108542,0.5259506676659593
93.20327200000003,452.6327883587212,1.546839695079951,0.5181333874066214
93.30327200000004,454.8947507108496,1.578383473548849,0.5103161071472836
93.40327200000004,457.20060840114064,1.6110633698002987,0.5024988268879458
93.474202,458.8635980442441,1.6349642667181759,0.49695403
93.57420200000001,461.3167074427668,1.670734947746807,0.48891403274012457
93.67420200000001,463.8208842588928,1.7078898095090982,0.4808740354802491
93.77420200000002,466.37804293343646,1.7465066304499235,0.4728340382203737
93.87420200000001,468.9902031538513,1.78666897160205,0.46479404096049826
93.97420200000002,471.6594975581343,1.828466715390626,0.45675404370062284
94.07420200000003,474.3881801486122,1.8719966651643078,0.44871404644074736
94.17420200000002,477.1786354950047,1.9173632135276464,0.44067404918087194
94.27420200000003,480.0333888166578,1.964679088792791,0.4326340519209965
94.291683,480.53922746630354,1.9731594666721046,0.43122858
94.391683,483.1210491828433,2.0169004898042973,0.4241430589590856
94.49168300000001,485.7572192448461,2.062358517231312,0.4170575379181712
94.591683,488.44980270468335,2.109631492622814,0.4099720168772568
94.69168300000001,491.2009798315223,2.158824756124173,0.4028864958363424
94.79168300000002,494.01305467828047,2.2100517447306447,0.39580097479542803
94.89168300000001,496.8884644510533,2.2634347729156845,0.38871545375451366
94.99168300000002,499.82978977223695,2.319105904366899,0.38162993271359924
95.09168300000002,502.8397659409505,2.3772079273842643,0.3745444116726849
95.19168300000003,505.9212953084878,2.4378954484999755,0.3674588906317705
95.29168300000003,509.0774609030711,2.5013361212506786,0.3603733695908561
95.319395,509.96574036855316,2.5194280749888254,0.35840983
95.41939500000001,513.537199138842,2.5932341340097507,0.3506477484256784
95.519395,517.20798756555,2.6708947101101477,0.3428856668513569
95.61939500000001,520.9831345638731,2.7527042076476187,0.33512358527703534
95.719395,524.8680456487455,2.838986990523848,0.32736150370271383
95.81939500000001,528.8685407827126,2.9301012299973226,0.31959942212839226
95.91939500000002,532.9908970488572,3.026443354559465,0.31183734055407075
96.01939500000002,537.2418969010441,3.12845321383623,0.3040752589797492
96.11939500000003,541.628882883562,3.236620092775894,0.2963131774054276
96.21939500000002,546.1598198824913,3.351489742752057,0.2885510958311061
96.292716,549.5783984401528,3.440322913562812,0.28285986
96.39271600000001,554.3178845809691,3.5666244252332184,0.27519617131647334
96.492716,559.2224735609702,3.701254704084504,0.2675324826329466
96.59271600000001,564.3027391843378,3.845022658685487,0.25986879394941986
96.69271600000002,569.5702651962491,3.9988426085535176,0.2522051052658932
96.777496,574.1921770894601,4.137891995324035,0.24570783
96.87749600000001,580.0922310274493,4.321080345404919,0.23770897725721135
96.97749600000002,586.2403842266389,4.5189389172842285,0.2297101245144227
97.073855,592.4174585533933,4.725098213205799,0.22200251
97.173855,599.0375556491971,4.954492027637659,0.21408970937240826
97.27385500000001,605.9630622616522,5.204116422567769,0.20617690874481653
97.373855,613.2202470957009,5.476628233924212,0.19826410811722478
97.47385500000001,620.8387916072729,5.775157816594053,0.19035130748963305
97.52000500000001,624.4857721012305,5.922705697871065,0.18669955
97.620005,632.4092921573002,6.2539379684749,0.17905462739847364
97.72000500000001,640.7543686965502,6.619071080043388,0.1714097047969473
97.793137,647.1482594906331,6.910521828042699,0.16581882
97.89313700000001,655.9048792903078,7.3267162719512955,0.1585157295432469
97.993137,665.1635703265739,7.788991655307609,0.1512126390864938
98.06164100000001,671.8237263169337,8.1361685750428,0.14620973
98.161641,681.0837684227415,8.639993273975334,0.13958154522611138
98.26164100000001,690.8897053064898,9.201323049146303,0.13295336045222275
98.36164100000002,701.302712987352,9.830067138023109,0.12632517567833412
98.46164100000001,712.3944909508325,10.538485336352972,0.11969699090444551
98.535301,721.0476796410342,11.120068886796192,0.11481467
98.63530100000001,729.0506064663209,11.681396955758357,0.11051055733167843
98.735301,737.4363337050358,12.294603767090177,0.10620644466335688
98.83530100000002,746.2395005269677,12.966864925507775,0.10190233199503532
98.93530100000002,755.4995164029574,13.706708367129078,0.09759821932671377
99.03530100000002,765.2614664755871,14.524343491284975,0.0932941066583922
99.13530100000003,775.5772369083031,15.432090182600302,0.08898999399007065
99.23530100000002,786.506937017834,16.444944867315574,0.08468588132174909
99.27822499999999,791.4037337892541,16.916376897642984,0.082838384
99.378225,796.2482703570672,17.39381715566001,0.08105773749437584
99.47822500000001,801.2214568669021,17.89557847447696,0.07927709098875166
99.54937500000001,804.8417049636591,18.26838577652919,0.078010161
99.649375,807.0276973644426,18.496618468976646,0.07725684660332868
99.74937500000001,809.2392510591256,18.729937500439185,0.07650353220665736
99.84937500000002,811.4769181158468,18.968507522258793,0.07575021780998605
99.94937500000002,813.7412682068591,19.21250021684396,0.07499690341331472
100.0,814.8979554230498,19.338145759337838,0.074615538
100.10000000000001,814.737880766873,19.320716791084177,0.07466817736859199
100.20000000000002,814.5779405438566,19.303315565277693,0.07472081673718399
100.30000000000001,814.4181345475314,19.285942018438295,0.07477345610577599
100.40000000000002,814.2584625718874,19.26859608727539,0.07482609547436798
100.50000000000001,814.098924411381,19.251277708687358,0.07487873484296
100.60000000000002,813.9395198609307,19.23398681976086,0.074931374211552
100.70000000000003,813.7802487159076,19.21672335776988,0.07498401358014399
100.80000000000003,813.6211107721468,19.199487260175353,0.07503665294873599
100.90000000000003,813.4621058259356,19.18227846462426,0.07508929231732799
101.00000000000003,813.3032336740181,19.165096908949067,0.07514193168591998
101.10000000000004,813.1444941135926,19.14794253116701,0.07519457105451198
101.20000000000005,812.9858869423123,19.130815269479474,0.07524721042310398
101.30000000000004,812.8274119582734,19.113715062271062,0.07529984979169599
101.40000000000005,812.6690689600284,19.09664184810927,0.07535248916028799
101.50000000000004,812.510857746581,19.079595565743745,0.07540512852887998
101.60000000000005,812.3527781173738,19.062576154105336,0.07545776789747198
101.70000000000006,812.1948298723005,19.045583552305743,0.07551040726606398
101.80000000000005,812.0370128117005,19.02861769963681,0.07556304663465598
101.90000000000006,811.8793267363537,19.011678535569715,0.07561568600324797
102.00000000000006,811.7217714474828,18.99476599975443,0.07566832537183997
102.10000000000007,811.5643467467476,18.977880032018977,0.07572096474043198
102.20000000000007,811.4070524362553,18.961020572369026,0.07577360410902398
102.30000000000007,811.2498883185422,18.944187560986872,0.07582624347761598
102.40000000000008,811.0928541965869,18.92738093823111,0.07587888284620797
102.50000000000007,810.9359498738042,18.9106006446359,0.07593152221479997
102.60000000000008,810.7791751540385,18.893846620910193,0.07598416158339197
102.70000000000009,810.622529841573,18.877118807937336,0.07603680095198397
102.80000000000008,810.4660137411194,18.86041714677426,0.07608944032057596
102.90000000000009,810.3096266578177,18.84374157865083,0.07614207968916797
103.00000000000009,810.1533683972386,18.827092044969344,0.07619471905775997
103.1000000000001,809.9972387653856,18.810468487303954,0.07624735842635197
103.2000000000001,809.8412375686848,18.793870847399855,0.07629999779494397
103.3000000000001,809.6853646139865,18.777299067172738,0.07635263716353596
103.4000000000001,809.5296197085664,18.760753088708213,0.07640527653212796
103.5000000000001,809.3740026601231,18.744232854261167,0.07645791590071996
103.60000000000011,809.2185132767826,18.727738306255297,0.07651055526931196
103.70000000000012,809.0631513670811,18.711269387282154,0.07656319463790397
103.80000000000011,808.907916739981,18.69482604010088,0.07661583400649596
103.90000000000012,808.7528092048636,18.6784082076375,0.07666847337508796
104.00000000000011,808.5978285715244,18.66201583298424,0.07672111274367996
104.10000000000012,808.4429746501725,18.645648859398936,0.07677375211227196
104.20000000000013,808.2882472514395,18.629307230304683,0.07682639148086395
104.30000000000013,808.1336461863615,18.612990889288838,0.07687903084945595
104.40000000000013,807.9791712663939,18.596699780102806,0.07693167021804795
104.50000000000013,807.8248223033976,18.580433846661155,0.07698430958663996
104.60000000000014,807.6705991096476,18.564193033041278,0.07703694895523196
104.70000000000014,807.5165014978242,18.547977283482624,0.07708958832382395
104.80000000000014,807.3625292810168,18.531786542386225,0.07714222769241595
104.90000000000015,807.2086822727205,18.51562075431405,0.07719486706100795
105.00000000000014,807.0549602868385,18.49947986398857,0.07724750642959995
106.00000000000016,805.5245760058647,18.339428289262035,0.07777390011551992
107.00000000000016,804.0064922213426,18.181806853049086,0.07830029380143991
108.00000000000016,802.5005293414686,18.026562836796696,0.07882668748735988
109.00000000000016,801.0065115809668,17.873645005738066,0.07935308117327985
110.00000000000016,799.5242668554829,17.723003557661997,0.07987947485919983
110.29572,799.0881681915378,17.678884856323428,0.08003514
111.29572,798.6412141324955,17.633763087053733,0.08019505555781087
112.29572,798.1953218799166,17.588844310436308,0.08035497111562175
113.29572,797.7504868325747,17.544127215752503,0.08051488667343261
114.29572,797.3067044183235,17.49961050331448,0.08067480223124349
115.29572,796.8639700938463,17.4552928843506,0.08083471778905435
116.29572,796.422279344431,17.411173080892794,0.08099463334686523
117.29572,795.9816276837226,17.36724982566465,0.08115454890467609
118.29572,795.5420106534898,17.323521861971237,0.08131446446248695
119.29572,795.1034238233985,17.27998794359035,0.08147438002029783
120.29572,794.6658627907781,17.23664683466483,0.0816342955781087
121.29572,794.2293231803912,17.19349730959627,0.08179421113591957
122.29572000000002,793.79380064422,17.150538152940328,0.08195412669373044
123.29572000000002,793.3592908612334,17.1077681593028,0.08211404225154131
124.29572000000002,792.9257895371638,17.065186133237184,0.08227395780935218
125.29572,792.4932924043067,17.022790889143828,0.08243387336716304
126.29572,792.0617952212841,16.98058125116959,0.08259378892497392
127.29572,791.6312937728427,16.93855605310932,0.08275370448278478
128.29572,791.2017838696397,16.89671413830824,0.08291362004059566
129.29572000000002,790.7732613480342,16.855054359565592,0.08307353559840652
130.29572000000002,790.3457220698759,16.81357557903932,0.0832334511562174
