Time (msec),Temperature (K),Pressure (bar),Volume (cm3)
0.0,393.0,0.6422811087525,1.0
0.9835505000000003,393.0,0.6422811087524999,1.0
1.9671010000000007,393.0,0.6422811087524999,1.0
2.950651500000001,393.0,0.6422811087524999,1.0
3.9342020000000013,393.0,0.6422811087524999,1.0
4.9177525000000015,393.0,0.6422811087524999,1.0
5.901303000000002,393.0,0.6422811087524999,1.0
6.884853500000002,393.0,0.6422811087524999,1.0
7.868404000000003,393.0,0.6422811087524999,1.0
8.851954500000002,393.0,0.6422811087524999,1.0
9.835505000000003,393.0,0.6422811087524999,1.0
10.819055500000005,393.0,0.6422811087524999,1.0
11.802606000000004,393.0,0.6422811087524999,1.0
12.786156500000002,393.0,0.6422811087524999,1.0
13.769707000000004,393.0,0.6422811087524999,1.0
14.753257500000005,393.0,0.6422811087524999,1.0
15.736808000000005,393.0,0.6422811087524999,1.0
16.720358500000003,393.0,0.6422811087524999,1.0
17.703909000000003,393.0,0.6422811087524999,1.0
18.703909000000003,392.9251555151149,0.6417968574686412,1.000563936559987
19.703909000000007,392.8503647029921,0.6413132393622055,1.001127873119974
20.703909000000003,392.7756274959084,0.6408302532532933,1.001691809679961
21.703909000000003,392.7009438262603,0.6403478979648555,1.002255746239948
22.703909000000003,392.62631362656737,0.6398661723226909,1.002819682799935
22.703939500000004,392.6263113511616,0.6398661576396502,1.0028197
23.703939500000004,393.35910153957366,0.6446085166211792,0.997299869497247
24.703939500000004,394.0970717623935,0.6494121994641452,0.991780038994494
25.7039395,394.840286838187,0.6542783432164945,0.9862602084917409
26.703939500000004,395.58881275778134,0.6592081124778861,0.9807403779889878
27.703939500000004,396.34271671210183,0.664202700226069,0.9752205474862348
27.843610000000005,396.4484467563545,0.6649055246591249,0.97444959
28.84361,394.81628818026616,0.6541207685595906,0.9864378339992969
29.84361,393.2091721444085,0.6436359922806064,0.9984260779985938
30.843610000000005,391.6264299335758,0.6334394367082037,1.0104143219978907
31.84361000000001,390.0674182024772,0.6235199348108861,1.0224025659971876
32.84361000000001,388.5315177329874,0.613866875365938,1.0343908099964845
33.214314,387.967904585771,0.6103540993277946,1.0388349
33.431217,391.11880854046245,0.6301961275327235,1.014298
34.431217,391.97245907374133,0.6356577828397958,1.0077777897950357
35.431217000000004,392.8331701128233,0.6412020954863732,1.0012575795900718
36.431217000000004,393.70104511298115,0.6468308608277035,0.9947373693851077
37.431217000000004,394.5761897223269,0.6525459252282056,0.9882171591801436
38.431217000000004,395.4587118429302,0.6583491878571754,0.9816969489751795
39.431217000000004,396.34872169403894,0.6642426025600523,0.9751767387702154
39.888153,396.757922232241,0.6669660701371916,0.97219742
40.28479,392.10934768479956,0.6365370356180182,1.0067372
41.28479,396.3189066481765,0.6640445092642174,0.9753942680939794
41.79737600000001,398.54395133124035,0.6789558818243916,0.95932832
42.79737600000001,392.40079158886385,0.6384121929008197,1.0045262727349276
43.79737600000001,386.5997796920692,0.6018925672933294,1.049724225469855
44.004418,385.4384401785577,0.5947822442463923,1.0590821
44.494335,395.7382968257053,0.6601960925826759,0.97964275
45.49433500000001,394.7813267345785,0.6538912681444659,0.9866966695311735
46.49433500000001,393.8330212283796,0.6476902001290674,0.9937505890623469
47.49433500000001,392.89324312058267,0.6415904706089903,1.0008045085935204
48.49433500000001,391.96185832526004,0.6355897343760669,1.0078584281246938
49.49433500000001,391.0387357661747,0.6296857162679658,1.0149123476558675
50.49433500000001,390.1237472891493,0.6238762086106695,1.0219662671870409
51.457081,389.2504140242617,0.6183704232501533,1.0287574
52.457081,393.5083378946553,0.6455776933903826,0.9961804652199195
52.712495000000004,394.6243580218557,0.6528616336973824,0.98785986
53.712495000000004,394.24824792480956,0.6503997114738839,0.9906540744231755
54.712495000000004,393.87348524016375,0.6479538548650537,0.993448288846351
55.71249500000001,393.5000614919601,0.6455239147861049,0.9962425032695265
56.71249500000001,393.12796828066564,0.6431097439451791,0.9990367176927019
57.71249500000001,392.7571972822795,0.6407111968168864,1.0018309321158774
58.71249500000001,392.3877402474457,0.6383281296162959,1.0046251465390528
59.71249500000001,392.01958900057946,0.6359604002733809,1.0074193609622282
59.904656,391.94899357885197,0.6355071601078659,1.0079563
60.3249,397.5518098745701,0.6722748387379804,0.96645019
60.76979800000001,389.21208023076554,0.618129630767819,1.0290568
61.76979800000001,386.826226877319,0.6032867123594597,1.0479118458898031
61.976711,386.33939006452755,0.6002925742412056,1.0518132
62.465846000000006,395.53993333812497,0.6588853123998638,0.98109962
63.249435000000005,396.203365627219,0.6632772798990018,0.97623784
64.249435,394.996168674568,0.6553025894171036,0.9851074355301906
65.249435,393.80272070127944,0.6474928268482688,0.9939770310603813
66.249435,392.6227483593769,0.6398431706525409,1.0028466265905718
67.249435,391.4559860449447,0.6323489808790055,1.0117162221207625
67.988429,390.6020921218897,0.6269080882335487,1.0182708
68.467173,395.66683748824886,0.6597236572275995,0.98016726
69.467173,394.9465464923266,0.6549764041898304,0.9854742118081603
70.467173,394.2311733700831,0.6502881189487956,0.9907811636163207
71.467173,393.5206593045592,0.645657762497516,0.9960881154244811
72.46717300000002,392.81494648465576,0.6410843194957159,1.0013950672326415
73.46717300000002,392.1139780827767,0.6365667976097182,1.0067020190408018
74.46717300000002,391.4176982330941,0.6321042268741152,1.0120089708489621
75.46717300000002,390.7260520103887,0.6276956590743414,1.0173159226571225
76.46717300000002,390.0389854094796,0.6233401671494136,1.0226228744652828
77.46717300000002,389.3564453251906,0.6190368446140266,1.027929826273443
77.83216100000001,389.108443667236,0.6174790043417085,1.0298668
78.83216100000001,391.20852089309193,0.6307683754915429,1.013610247089172
79.83216100000001,393.3519301198984,0.6445619773429458,0.9973536941783439
80.832161,395.5402704356572,0.6588875386013975,0.9810971412675158
81.309814,396.60188181670526,0.6659265033872277,0.97333215
81.69469,389.53669868150456,0.6201710496799321,1.0265249
82.69469,391.9120138899294,0.6352698430953867,1.0082377066501411
83.69469000000001,394.34282202752587,0.6510180845037089,0.9899505133002822
84.50245000000001,396.3484313461544,0.6642406779026356,0.97517885
84.708056,392.6337715174265,0.6399143052174132,1.0027633
85.02291600000001,391.8157791808444,0.6346525820382661,1.0089705
86.02291600000001,401.2069852396444,0.6971466015543631,0.9405393478358604
86.29520000000001,403.9154616021207,0.7160381025367161,0.92190664
86.95245,399.30030600376045,0.6840840649486272,0.95394375
87.299297,403.7792101527844,0.7150782562300806,0.92283271
88.299297,409.7524268380658,0.7581187284474464,0.883317647132781
88.63314,411.82244002950955,0.7735004121415717,0.87012582
89.63314,423.31595087912586,0.8634370314512583,0.801247265656878
90.63314,436.131038081075,0.9732396891563,0.7323687113137559
90.73314,437.4958022840651,0.9855542423853775,0.7254808558794436
90.83314,438.8769852568524,0.9981422118189228,0.7185930004451311
90.93314000000001,440.27493944620056,1.0110123451226556,0.7117051450108187
91.03314000000002,441.6900283006874,1.0241737574205418,0.7048172895765064
91.13314000000001,443.1226267242416,1.0376359504890196,0.697929434142194
91.23314000000002,444.57312155302736,1.0514088331543292,0.6910415787078815
91.33314000000001,446.0419120571181,1.0655027429811912,0.6841537232735692
91.43314000000002,447.5294104685099,1.0799284693484945,0.6772658678392568
91.53314000000003,449.03604253715156,1.094697278015848,0.6703780124049443
91.560861,449.4571419548482,1.0988536432814906,0.66846863
91.66086100000001,451.428309085206,1.1184764864965973,0.6596210853834573
91.76086100000002,453.43295584090777,1.1387169697833908,0.6507735407669145
91.86086100000001,455.472102164892,1.1596032283011628,0.6419259961503718
91.96086100000002,457.54681339896166,1.1811650872111465,0.6330784515338291
92.06086100000002,459.65820296471117,1.2034341884617885,0.6242309069172864
92.16086100000003,461.8074352430496,1.2264441290384143,0.6153833623007436
92.26086100000003,463.9957286700726,1.2502306118957336,0.606535817684201
92.36086100000003,466.22435906897056,1.2748316109412368,0.5976882730676583
92.46086100000004,468.49466323972797,1.3002875516076835,0.5888407284511156
92.56086100000003,470.8080428307581,1.3266415087473593,0.5799931838345728
92.66086100000004,473.1659685192583,1.3539394238030502,0.5711456392180301
92.76086100000005,475.5699845301172,1.382230343465621,0.5622980946014874
92.86086100000004,478.02171352654943,1.4115666823205737,0.5534505499849447
92.96086100000005,480.5228619095121,1.4420045123228458,0.5446030053684019
93.06086100000005,483.0752255673098,1.4736038823274613,0.5357554607518592
93.16086100000005,485.6806961217268,1.5064291713525484,0.5269079161353165
93.240395,487.79216982706,1.533457482285795,0.51987111
93.340395,490.0171221682646,1.5623568050841752,0.5125823290186936
93.44039500000001,492.28182010699766,1.592218416086998,0.5052935480373872
93.54039500000002,494.5875428378331,1.6230887652823895,0.4980047670560808
93.64039500000001,496.9356298699748,1.6550172632865896,0.4907159860747744
93.74039500000002,499.3274848075848,1.6880565173154727,0.48342720509346804
93.84039500000002,501.7645794277788,1.7222625898514548,0.4761384241121616
93.94039500000002,504.2484580846731,1.7576952825745058,0.46884964313085525
94.04039500000003,506.7807424710672,1.7944184484618158,0.46156086214954883
94.14039500000003,509.3631367729179,1.8325003353463576,0.45427208116824247
94.183383,510.4891000269662,1.8493065621370772,0.45113878
94.28338300000001,513.1326752100703,1.8892520008218612,0.4438869504842705
94.38338300000001,515.8303179405192,1.9307266746721234,0.43663512096854096
94.48338300000002,518.5840292548019,1.9738156814523644,0.42938329145281146
94.58338300000003,521.3959190468818,2.018610387978948,0.4221314619370819
94.68338300000002,524.2682139634287,2.0652090091161672,0.4148796324213524
94.78338300000003,527.2032660204832,2.113717251467926,0.40762780290562284
94.88338300000002,530.2035620215654,2.1642490302942172,0.40037597338989334
94.98338300000003,533.2717338678256,2.216927269484338,0.3931241438741638
94.984278,533.29950877691,2.2174088248546506,0.39305924
95.08427800000001,536.4263444537625,2.2721637425891466,0.3858362882032361
95.184278,539.6262311242892,2.329323149650802,0.37861333640647227
95.28427800000001,542.9022715751734,2.38904099031956,0.3713903846097084
95.38427800000002,546.2577630136644,2.4514842948082487,0.36416743281294456
95.48427800000002,549.6962133627586,2.5168345778738486,0.3569444810161807
95.58427800000003,553.2213592824887,2.5852894188119335,0.3497215292194169
95.68427800000002,556.8371861400104,2.6570642506731903,0.34249857742265305
95.692301,557.1313393667477,2.6629735360171796,0.34191908
95.79230100000001,560.8599834689383,2.738806904685298,0.3346768238592153
95.89230100000002,564.6890427782199,2.818496061245393,0.3274345677184306
95.99230100000001,568.6234602074942,2.9023278708876967,0.32019231157764594
96.09230100000002,572.6685391603513,2.9906176357866507,0.3129500554368613
96.19230100000001,576.8299788370024,3.0837126522237943,0.3057077992960766
96.29230100000002,581.1139139272531,3.1819963096134933,0.2984655431552919
96.39230100000003,585.5269593570947,3.285892829506033,0.2912232870145072
96.461136,588.6434014240018,3.360914527659467,0.28623808
96.561136,593.7020129662985,3.4856580175563834,0.2783660993008002
96.66113600000001,598.9383672796363,3.6187360407832316,0.2704941186016004
96.76113600000001,604.3639954569218,3.7609698272593803,0.2626221379024006
96.86113600000002,609.9915468016654,3.913289287187783,0.25475015720320077
96.96113600000001,615.8349357113141,4.076751310353122,0.24687817650400096
96.989197,617.5154883911089,4.124783092755804,0.24466922
97.089197,623.4198010433463,4.297222481122279,0.23709661363289333
97.18919700000001,629.557828832055,4.482704481556237,0.22952400726578667
97.289197,635.9467687210179,4.682690696692524,0.22195140089868
97.38919700000001,642.6057194976906,4.898863743198911,0.21437879453157335
97.44161600000001,646.2111980821907,5.019288113161222,0.21040931
97.541616,653.5041919451888,5.270323791504322,0.20264863282299578
97.64161600000001,661.1431774329851,5.544254003687896,0.19488795564599157
97.73631,668.7236301324726,5.827570456644364,0.18753906
97.83631000000001,677.0675102532969,6.153110881091688,0.17983318289744832
97.93631,685.8541807165993,6.512003379444433,0.17212730579489663
98.03631000000001,695.1280652255454,6.909378808120265,0.16442142869234497
98.13631000000002,704.9403895054799,7.351448117758484,0.15671555158979328
98.184456,709.8738370533094,7.582401592802567,0.15300548
98.284456,720.2958503691831,8.090100707384003,0.14550890851114687
98.38445600000001,731.3831299906387,8.660832246251868,0.13801233702229374
98.46883600000001,741.3156869491914,9.200125990297208,0.13168673
98.568836,750.9056153459179,9.747003434680833,0.12590611719272546
98.66883600000001,761.0375446612373,10.3538878469702,0.12012550438545092
98.76883600000001,771.7699876879548,11.030716346027136,0.11434489157817637
98.86883600000002,783.1711609377664,11.789688575428315,0.10856427877090183
98.96883600000002,795.3212223654365,12.645938512702418,0.10278366596362729
99.06883600000002,808.3151877025217,13.618457918771988,0.09700305315635274
99.16883600000003,822.2667868051591,14.731387732933308,0.0912224403490782
99.218207,829.5490185406576,15.34183113327676,0.088368494
99.318207,835.6918979125109,15.873071945731201,0.08604344790791389
99.41820700000001,842.0356846844596,16.437742234514783,0.08371840181582778
99.51820700000002,848.5927653165372,17.038955502534165,0.08139335572374166
99.61820700000001,855.3766763629675,17.68021524147507,0.07906830963165555
99.707445,861.6340726267625,18.289485337975012,0.076993485
99.80744500000002,865.773566093573,18.70211586690638,0.07565648785416414
99.90744500000001,870.0010291568545,19.131527197874025,0.07431949070832827
100.0,873.9951831353521,19.544790385763225,0.073082033
100.10000000000001,873.6330464294566,19.507015870412182,0.07319321337015915
100.20000000000002,873.2715635813089,19.469370517454333,0.07330439374031829
100.30000000000001,872.910732423847,19.43185369183908,0.07341557411047742
100.40000000000002,872.55055080052,19.39446476259052,0.07352675448063656
100.50000000000001,872.1910165651951,19.35720310277461,0.0736379348507957
100.60000000000002,871.8321275821144,19.320068089467764,0.07374911522095484
100.70000000000003,871.4738817258103,19.283059103724785,0.07386029559111397
100.80000000000003,871.1162768810639,19.246175530548044,0.07397147596127311
100.90000000000003,870.7593109428145,19.209416758855866,0.07408265633143225
101.00000000000003,870.4029818161104,19.172782181452096,0.0741938367015914
101.10000000000004,870.0472874160386,19.13627119499551,0.07430501707175054
101.20000000000005,869.6922256676664,19.09988319996971,0.07441619744190967
101.30000000000004,869.3377945059779,19.063617600653192,0.0745273778120688
101.40000000000005,868.9839918757999,19.027473805089517,0.07463855818222795
101.50000000000004,868.6308157317633,18.991451225058398,0.07474973855238709
101.60000000000005,868.2782640382208,18.95554927604621,0.07486091892254622
101.70000000000006,867.9263347691932,18.919767377217287,0.07497209929270536
101.80000000000005,867.5750259083127,18.88410495138551,0.0750832796628645
101.90000000000006,867.2243354487518,18.84856142498574,0.07519446003302364
102.00000000000006,866.8742613931813,18.813136228046197,0.07530564040318277
102.10000000000007,866.5248017536949,18.777828794160335,0.07541682077334191
102.20000000000007,866.1759545517588,18.742638560459515,0.07552800114350106
102.30000000000007,865.8277178181482,18.707564967585622,0.0756391815136602
102.40000000000008,865.4800895929022,18.672607459664327,0.07575036188381934
102.50000000000007,865.1330679252484,18.63776548427796,0.07586154225397847
102.60000000000008,864.7866508735586,18.603038492439225,0.07597272262413761
102.70000000000009,864.4408365052882,18.56842593856486,0.07608390299429675
102.80000000000008,864.0956228969214,18.53392728044963,0.07619508336445589
102.90000000000009,863.7510081339103,18.499541979240398,0.07630626373461502
103.00000000000009,863.4069903106391,18.465269499410983,0.07641744410477416
103.1000000000001,863.0635675303371,18.431109308736126,0.0765286244749333
103.2000000000001,862.7207379050565,18.397060878267094,0.07663980484509245
103.3000000000001,862.3784995555949,18.363123682306284,0.07675098521525159
103.4000000000001,862.0368506114561,18.32929719838286,0.07686216558541072
103.5000000000001,861.6957892107896,18.295580907228192,0.07697334595556986
103.60000000000011,861.355313500343,18.261974292751738,0.077084526325729
103.70000000000012,861.0154216354058,18.228476842017,0.07719570669588814
103.80000000000011,860.6761117797619,18.195088045217773,0.07730688706604727
103.90000000000012,860.3373821056304,18.161807395654485,0.07741806743620641
104.00000000000011,859.9992307936249,18.12863438971102,0.07752924780636555
104.088836,859.699314345185,18.099254702281275,0.077628016
104.18883600000001,859.6124361063672,18.09075159245416,0.07765665462068691
104.288836,859.5255959852616,18.08225555385694,0.07768529324137383
104.38883600000001,859.4387939511673,18.07376657802646,0.07771393186206074
104.48883600000002,859.3520299734188,18.06528465651277,0.07774257048274767
104.58883600000001,859.2653040213885,18.056809780879178,0.07777120910343459
104.68883600000002,859.1786160644775,18.048341942702006,0.0777998477241215
104.78883600000002,859.0919660721332,18.039881133570944,0.07782848634480842
104.88883600000003,859.0053540138335,18.031427345088705,0.07785712496549534
104.98883600000003,858.9187798590901,18.02298056887105,0.07788576358618225
105.08883600000003,858.8322435774526,18.014540796546868,0.07791440220686918
106.08883600000003,857.9689571084836,17.93052645510692,0.07820078841373836
107.08883600000003,857.1094247192783,17.847203390955297,0.07848717462060753
108.08883600000003,856.2536165426608,17.76456344489679,0.0787735608274767
109.08883600000004,855.4015030579405,17.68259858312191,0.07905994703434588
110.08883600000004,854.5530550856196,17.601300894835024,0.07934633324121505
111.08883600000004,853.7082437822278,17.52066258993643,0.07963271944808423
112.08883600000004,852.8670406352214,17.44067599675542,0.0799191056549534
113.08883600000004,852.0294174580193,17.361333559834865,0.08020549186182258
114.08883600000004,851.1953463850829,17.282627837763837,0.08049187806869175
115.08883600000004,850.3647998671291,17.20455150105916,0.08077826427556094
116.08883600000004,849.5377506664115,17.12709733009314,0.08106465048243011
117.08883600000004,848.7141718520858,17.050258213066797,0.08135103668929929
118.08883600000004,847.8940367956743,16.974027144027747,0.08163742289616846
118.699819,847.3946317447862,16.927747541904974,0.0818124
119.699819,847.0315868454937,16.89417065007567,0.08193988070054288
120.699819,846.6692136440176,16.860711448994888,0.08206736140108575
121.699819,846.3075098637798,16.827369345796757,0.08219484210162864
122.699819,845.946473239476,16.794143751511584,0.08232232280217151
123.699819,845.5861015169979,16.76103408103415,0.0824498035027144
124.699819,845.2263924533595,16.728039753092457,0.08257728420325729
125.69981899999999,844.8673438166388,16.695160190217006,0.08270476490380016
126.69981899999999,844.5089533858813,16.66239481870965,0.08283224560434305
127.69981899999999,844.1512189510528,16.62974306861367,0.08295972630488593
128.699819,843.7941383129537,16.597204373683432,0.0830872070054288
129.699819,843.4377092831584,16.564778171354696,0.0832146877059717
130.699819,843.0819296839402,16.532463902715065,0.08334216840651457
131.699819,842.7267973481993,16.500261012474628,0.08346964910705745
132.699819,842.3723101194038,16.468168948937233,0.08359712980760034
