Time (msec),Temperature (K),Pressure (bar),Volume (cm3)
0.0,815.08,42.1691579703716,5.98867
1.0,815.0950546425596,42.1590465850414,5.99005
2.0,814.8910714046193,42.1412534153499,5.98764
3.0,814.8318744611231,42.1001135610092,5.99073
4.0,814.6518472745425,42.0642476390358,5.99073
5.0,814.4585706492192,42.0322080467178,5.99005
6.0,813.9514547919778,41.9703189185067,5.98593
7.0,813.220251567,41.9125840196049,5.97667
8.0,813.0423506033603,41.8577515569625,5.97873
9.0,812.8755294659363,41.8019794959795,5.98113
10.0,811.9933211657735,41.733575092298,5.96984
11.0,811.225704342551,41.6812981404664,5.95926
12.0,810.4809010404128,41.6237213358522,5.94973
13.0,809.1516929602376,41.5527864100927,5.92938
14.0,806.5407725254901,41.4851757706644,5.88197
15.0,804.0573911224451,41.4173829047015,5.83744
16.0,800.725321196344,41.3505890652303,5.77549
17.0,796.5771660748692,41.2959624801421,5.69599
18.0,793.1329246056649,41.2276414505856,5.63281
19.0,789.41142327926,41.1679723366823,5.56359
20.0,784.1170872138562,41.1057664591134,5.46376
21.0,778.4825272274607,41.0457115388162,5.35813
22.0,773.3023231170845,40.9797025589916,5.26316
23.0,766.5053349254903,40.9098685920218,5.13855
24.0,759.7939660280276,40.8475003100449,5.01671
25.0,751.832783506716,40.7877623856199,4.87326
26.0,743.617569469776,40.724616897516,4.72808
27.0,734.8574788295423,40.6732669031291,4.57495
28.0,725.6354071625198,40.6207787108984,4.41704
29.0,715.6383098702471,40.5517472701971,4.25074
30.0,704.779281194716,40.4966334701129,4.07314
31.0,693.2521585848617,40.4415128080776,3.8896
32.0,681.1560648034375,40.3748942761109,3.70334
33.0,668.0212406417426,40.323896931488,3.50622
34.0,654.0944586871824,40.2713611279474,3.30458
35.0,639.4122907153281,40.2102882921607,3.10052
36.0,623.4986646993231,40.1527156240954,2.88817
37.0,606.1512051266576,40.1017748587261,2.66697
38.0,587.7322738114051,40.0484620880348,2.44431
39.0,568.0209135270479,39.9927773553732,2.2196
40.0,546.243267752665,39.9485611176681,1.98665
40.1,543.9985652840022,39.9445420227453,1.96356
40.2,541.726775409653,39.937654002283,1.94047
40.3,539.3934665823466,39.9310608690196,1.91692
40.4,537.0399420266189,39.9264880150247,1.89328
40.5,534.6736086150967,39.9207901101172,1.86974
40.6,532.2811941372087,39.915118870341296,1.84613
40.7,529.8965473622567,39.911791471611,1.82271
40.8,527.4858488577048,39.9084367545663,1.79923
40.9,525.0074947024768,39.9021317767138,1.77539
41.0,522.4863163383068,39.8934964476788,1.75142
41.1,519.9809685311312,39.8867009066918,1.72775
41.2,517.479429527994,39.8818868850898,1.70426
41.3,514.9433112717157,39.8775427657206,1.68064
41.4,512.3536934932632,39.8724902580239,1.65676
41.5,509.73270125963273,39.8665464525624,1.63284
41.6,507.11275461955694,39.8603785032924,1.60916
41.7,504.4608613151862,39.85541972468349,1.58538
41.8,501.7464559849079,39.8519180537099,1.56123
41.9,499.15143241947015,39.8487774093282,1.53836
42.0,496.8505049468465,39.8443707551358,1.51831
42.1,494.5685180899904,39.8382946877891,1.49864
42.2,492.2049647077729,39.8305734413107,1.47848
42.3,489.9543190612204,39.8249101777247,1.4594
42.4,487.8776985330753,39.8203079797631,1.44192
42.5,485.6417750887288,39.8123578826962,1.42333
42.6,483.14329893857575,39.80347323585459,1.40274
42.7,481.1375722915552,39.79711342297169,1.38633
42.8,479.6434555664061,39.7937975898391,1.37415
42.9,477.9120248086474,39.7920104261203,1.36007
43.0,475.8648333566661,39.7884267250096,1.34358
43.1,474.028820271764,39.7832489219859,1.32895
43.2,472.2357350572159,39.7798857577,1.31472
43.3,470.2268449534428,39.7775525144861,1.29886
43.4,468.2967935099749,39.7736217303106,1.28378
43.5,466.892298663078,39.7685549219106,1.27293
43.6,465.6892281264935,39.7647682054232,1.26367
43.7,464.1125110330133,39.760655680551096,1.25158
43.8,462.482579222122,39.7546974169785,1.2392
43.9,461.1198714818311,39.7492911449817,1.22892
44.0,459.6439849977877,39.7468774040327,1.21777
44.1,458.3812616895341,39.7440350326438,1.2083
44.2,457.0888583526257,39.7365052407296,1.19876
44.3,455.9100463772973,39.7274069550874,1.19015
44.4,455.301357849818,39.7199755748472,1.18578
44.5,454.5246733319847,39.7154210707645,1.18011
44.6,453.1602767812989,39.712069583633294,1.17009
44.7,451.7150140204315,39.707416760776994,1.15956
44.8,450.400185200786,39.7028791936706,1.15004
44.9,449.1527785604792,39.6969191928177,1.14109
45.0,448.2944928430658,39.6903574905887,1.13501
45.1,447.6745982352039,39.6861654651032,1.13062
45.2,446.76495037613495,39.6827585452156,1.12414
45.3,445.7198174701778,39.6776145548568,1.11675
45.4,444.7042386403976,39.6706289863364,1.10964
45.5,443.84343194108914,39.6640361018773,1.10365
45.6,443.09847562487306,39.65895205549229,1.09847
45.7,442.371401265161,39.65395498061049,1.09343
45.8,441.7026177325816,39.6492148820951,1.08881
45.9,441.1056320175478,39.6423432842864,1.08475
46.0,440.573438794081,39.6331817195995,1.0812
46.1,439.940507277156,39.6266250018054,1.0769
46.2,439.3794155437581,39.6231592188823,1.07305
46.3,438.7495279931888,39.6191893876631,1.06874
46.4,438.03766386724266,39.6128117519317,1.06392
46.5,437.4589356882234,39.6056901360796,1.06005
46.6,436.8862638029557,39.6026509778278,1.05615
46.7,436.4150473080868,39.6015627661023,1.05292
46.8,435.9956375850238,39.5980733026635,1.0501
46.9,435.5548203997332,39.5929369069251,1.04717
47.0,435.1988481736535,39.5866248822889,1.04485
47.1,434.7950469464327,39.5811112587414,1.04219
47.2,434.4033791058551,39.5780227962616,1.03957
47.3,434.0360517045249,39.5764977489032,1.03709
47.4,433.68335608815806,39.5746390853669,1.03472
47.5,433.3175556921901,39.5693788280135,1.03233
47.6,432.91456011389977,39.5625960892341,1.02972
47.7,432.5558355551767,39.5565663655261,1.0274
47.8,432.2242881256127,39.5514432509901,1.02525
47.9,431.9019765998983,39.5465968915909,1.02316
48.0,431.6207017337614,39.5407087648165,1.02137
48.1,431.3881209592798,39.5359094320862,1.01989
48.2,431.1820852537294,39.5332302953383,1.01855
48.3,430.9879269685696,39.5290403175651,1.01732
48.4,430.7803242082017,39.5217154801671,1.01606
48.5,430.6166954818645,39.514236015945,1.0151
48.6,430.4351567555799,39.5088584751737,1.01398
48.7,430.2260627565667,39.5063990815265,1.01262
48.8,430.0140547480092,39.5024401578542,1.01127
48.9,429.78801296567417,39.4962051035196,1.00987
49.0,429.5650614799822,39.4900698798999,1.00849
49.1,429.3491686927754,39.4843811813409,1.00715
49.2,429.1666357560004,39.4784002644447,1.00604
49.3,429.0205484204218,39.4731972851843,1.00516
49.4,428.85906473133406,39.4689199339422,1.00416
49.5,428.68922298840215,39.4632998465529,1.00313
49.6,428.5598883802144,39.4556229228701,1.00241
49.7,428.4577267546509,39.4496371422288,1.00184
49.8,428.3418268102774,39.4478231402937,1.0011
49.9,428.2142821264814,39.4445514820869,1.00031
50.0,428.148455730786,39.4376673477116,1.0
51.0,429.1962548209133,39.3968949926533,1.00778
52.0,429.7306931709055,39.3448697863766,1.01236
53.0,429.5170511346037,39.2977716391957,1.01182
54.0,429.8219712362784,39.2524846171281,1.01474
55.0,430.0748434717549,39.2101200911528,1.01726
56.0,430.3585809001948,39.1612832191021,1.02012
57.0,430.6990699083596,39.1157061982854,1.02331
58.0,430.8923783893159,39.0602585872743,1.0257
59.0,431.0420969479367,39.0165734792081,1.02757
60.0,431.2097768408137,38.9752664967692,1.02952
61.0,431.2599901238502,38.932012128824,1.03071
62.0,431.3030324421268,38.8863798713488,1.0319
63.0,431.3621657865595,38.837830324424,1.03326
64.0,431.5296124671867,38.8032070235171,1.03509
65.0,431.6420124379038,38.7623073161119,1.03667
66.0,431.6788677987508,38.7090248071379,1.03798
67.0,431.7627796056738,38.6711473016517,1.03931
68.0,431.8270176124008,38.6286028439467,1.0406
69.0,431.82414049185087,38.5870559497993,1.04141
70.0,431.8259827383293,38.544713723284,1.04227
71.0,431.8562418115831,38.5042538099778,1.04329
72.0,431.9012841059255,38.4580260193912,1.04453
73.0,432.026006059543,38.4283489200621,1.04599
74.0,432.0752728826338,38.3798543654709,1.04731
75.0,432.1001885929285,38.3335335145567,1.04842
76.0,432.11700141089045,38.2934228035212,1.04935
77.0,432.215278734286,38.2600691021016,1.05071
78.0,432.2890667553036,38.2228857257551,1.05198
79.0,432.25964044785127,38.17904053777,1.05267
80.0,432.29674597789847,38.1422700564193,1.05368
81.0,432.3212186609073,38.0973854020533,1.05477
82.0,432.3076818398531,38.060629783446,1.05543
83.0,432.3354349365849,38.0209280881975,1.05644
84.0,432.318038174697,37.9766839509446,1.05723
85.0,432.2826922616717,37.9390309667133,1.05776
86.0,432.2665098985865,37.8977563428774,1.0585
87.0,432.23443229753366,37.8695215383584,1.05886
88.0,432.1972840262487,37.8241731781136,1.05954
89.0,432.2106650308861,37.7887219413012,1.06037
90.0,432.2266420866122,37.7542096585824,1.0612
91.0,432.2218530548558,37.7074979704087,1.06214
92.0,432.2272101572982,37.6724265758224,1.06291
93.0,432.2374038097698,37.6399943440505,1.06366
94.0,432.24342658936615,37.6000158851046,1.06454
95.0,432.1923049020115,37.5523847565023,1.06518
96.0,432.1848736545346,37.5246861284071,1.06571
97.0,432.2219439209232,37.4924511963346,1.06665
98.0,432.2067251006957,37.4555943464347,1.06732
99.0,432.2732312284532,37.4172383719718,1.0686
100.0,432.30552448882185,37.3779584846998,1.06966
101.0,432.2719362030423,37.3394228111327,1.07024
102.0,432.2071481243378,37.3112523065429,1.07038
103.0,432.15582104575776,37.2730084387657,1.07083
104.0,432.11903211726735,37.2358889993922,1.07136
105.0,432.13176503879305,37.2035505926757,1.07214
106.0,432.10914401642526,37.1656176476155,1.07279
107.0,432.06689114863656,37.1282391181888,1.07329
108.0,432.0992112599589,37.0997491483807,1.07413
109.0,432.0672526803014,37.0626126004737,1.0747
110.0,432.0433444375721,37.0300473147697,1.07523
111.0,432.01751121666376,36.9903875063856,1.0759
112.0,431.9955680107146,36.9516090682337,1.07658
113.0,432.0186379771119,36.9305061304636,1.0772
114.0,431.9946200606488,36.8888349534965,1.07793
115.0,431.9392673464069,36.8549125558564,1.07827
116.0,431.95569974410296,36.8354149035064,1.07881
117.0,431.9117579463425,36.797937660396,1.07931
118.0,431.8766049989716,36.7615549500712,1.07985
119.0,431.81678403720827,36.7235527839937,1.08025
120.0,431.8638391349589,36.7041254349546,1.08101
121.0,431.8065970325236,36.6578935541401,1.08161
122.0,431.7185969568448,36.6112638379601,1.082
123.0,431.7048377681563,36.5857639298239,1.08246
124.0,431.64712851901896,36.5413802745748,1.08302
125.0,431.6150622455945,36.5190747154977,1.08328
126.0,431.5882732316753,36.4780528404372,1.08399
127.0,431.6458774889599,36.4632274975535,1.08473
128.0,431.6357455772994,36.4277339849114,1.08544
129.0,431.6857393520028,36.3973762538115,1.08647
130.0,431.6392612059067,36.3619300173986,1.08692
131.0,431.6009489182143,36.3300782929706,1.08735
132.0,431.53173958046136,36.2958959363192,1.08761
133.0,431.5427122349855,36.27108933864,1.08824
134.0,431.4854256387305,36.232293184804,1.08869
135.0,431.4431969173463,36.199314545886,1.08912
136.0,431.4459183092185,36.1755306688364,1.08967
137.0,431.39745492758334,36.1383673552715,1.09015
138.0,431.3396502878146,36.1040440712762,1.0905
139.0,431.3220256324403,36.0728974714721,1.09107
140.0,431.3091511907019,36.0419847360524,1.09167
141.0,431.2583878893236,36.0060325149822,1.09211
142.0,431.2674056856842,35.9822466449668,1.09271
143.0,431.23268108526537,35.9519722767215,1.09314
144.0,431.1839232459484,35.918551171785,1.09354
145.0,431.14749785959725,35.8900111072945,1.09392
146.0,431.099173825569,35.8554693181387,1.09435
147.0,431.0419173623348,35.8242879123886,1.09464
148.0,431.0049786978373,35.7974366579219,1.09498
149.0,430.9950735371198,35.766039289580704,1.09562
150.0,430.94445394824015,35.7322269505895,1.09602
151.0,430.9195468351518,35.7013932213199,1.09654
152.0,430.8898060595616,35.672564821662,1.09698
153.0,430.8530945586218,35.6345285952985,1.09758
154.0,430.854905502832,35.6110137667975,1.09813
155.0,430.8126241490592,35.5835372021897,1.09845
156.0,430.77551930309744,35.5524907963987,1.09889
157.0,430.7281939627665,35.5212807013156,1.09926
158.0,430.6573167979612,35.4887160228563,1.09949
159.0,430.622677674461,35.4585493529198,1.09993
160.0,430.5793354150682,35.424783898769,1.10039
161.0,430.5301914409781,35.3978996629647,1.10065
162.0,430.4872686528026,35.3678039136453,1.10103
163.0,430.4727101145304,35.3354593749761,1.10167
164.0,430.4276784307499,35.2982767702106,1.1022
165.0,430.4057966769893,35.2740728609612,1.1026
166.0,430.36821429593175,35.234581333484,1.10324
167.0,430.3109674321472,35.2100439694217,1.10339
168.0,430.2530345942467,35.1754082233257,1.10377
169.0,430.2135289627326,35.1491945014197,1.10409
170.0,430.1627012475167,35.1194376326199,1.10441
171.0,430.1481224867418,35.0822514852634,1.10517
172.0,430.1401001660476,35.0536057031466,1.10578
173.0,430.119695486529,35.0309395576062,1.10616
174.0,430.0769786564112,34.9974460065412,1.10663
175.0,430.0377428583252,34.966362481884,1.10707
176.0,429.9759033761728,34.9320621972199,1.10742
177.0,429.94933358655663,34.8986341697038,1.10801
178.0,429.88559559867787,34.8676372667751,1.10827
179.0,429.86902314694095,34.8425035719129,1.10874
180.0,429.8201485475586,34.8085763406559,1.10918
181.0,429.7733185579323,34.7791340773232,1.10953
182.0,429.7629338814285,34.7560155699498,1.11
183.0,429.6887321205396,34.7189397928761,1.11033
184.0,429.6043185569764,34.681674919059,1.11059
185.0,429.5918936003265,34.6617943204255,1.11097
186.0,429.52489657811634,34.629586317148,1.11124
187.0,429.46988878502833,34.5965111169663,1.11162
188.0,429.4332618302878,34.5687579659079,1.11201
189.0,429.3934915332626,34.539218231075,1.11242
190.0,429.344350867136,34.5068040001198,1.11283
191.0,429.3027601744255,34.4792721114065,1.11318
192.0,429.30103628234,34.4561714848338,1.11372
193.0,429.2428449099833,34.4210523917775,1.11413
194.0,429.2232188586349,34.4003924241628,1.11448
195.0,429.1907191067048,34.3728581516437,1.1149
196.0,429.1122561740384,34.34114145219,1.11508
197.0,429.0811544448429,34.3082796296239,1.11564
198.0,429.0789472374747,34.2856084949116,1.11617
199.0,429.02314936339945,34.2597124448834,1.11638
200.0,428.95664516287184,34.2259879139845,1.1167
201.0,428.9232983162479,34.2058014545259,1.11694
202.0,428.8927362037606,34.1753336006874,1.11745
203.0,428.8523044660941,34.1435201965131,1.11792
204.0,428.77870823279744,34.115981131171,1.11804
205.0,428.7583293064082,34.0866764948472,1.1186
206.0,428.7336241798738,34.0618348613093,1.11902
207.0,428.6738967959668,34.0361443088277,1.1192
208.0,428.6534161305208,34.013050269238,1.11961
209.0,428.6275715880385,33.984240850102,1.12012
210.0,428.584004778457,33.95741284887,1.12045
211.0,428.5111918131914,33.9253554958289,1.12069
212.0,428.5057510075005,33.9032722714453,1.12119
213.0,428.47373452693984,33.8775930868615,1.12158
214.0,428.41143309392,33.8488185471192,1.12182
215.0,428.3669265572549,33.8218249530509,1.12215
216.0,428.2963946900752,33.7918126633724,1.12236
217.0,428.2490675232819,33.759544064408,1.1228
218.0,428.24204207008137,33.7367189513427,1.12331
219.0,428.2450316695743,33.7096707876969,1.124
220.0,428.2267813897495,33.6883488744321,1.12439
221.0,428.240323930528,33.665777895844,1.12505
222.0,428.2108384580391,33.6386726582177,1.1255
223.0,428.13556062052,33.6013588252435,1.12586
224.0,428.077229523336,33.5788725118222,1.12598
225.0,428.0629609305769,33.5540368060139,1.12649
226.0,428.0408381208546,33.5232415230558,1.12709
227.0,427.98942247061024,33.5016931229197,1.12724
228.0,427.9892005976532,33.4799724082014,1.12778
229.0,427.9162327098416,33.4495524110354,1.12799
230.0,427.866674441415,33.4214122496173,1.12832
231.0,427.8205502151423,33.3967285533096,1.12859
232.0,427.7670873228699,33.3638708584481,1.12901
233.0,427.7095029424199,33.340570409825,1.12916
234.0,427.6991684053215,33.3195357215166,1.12961
235.0,427.640526210337,33.2907773973457,1.12989
236.0,427.6066652783992,33.2639176083043,1.13031
237.0,427.5864294412978,33.2399797319564,1.13076
238.0,427.5456025710671,33.2134635838134,1.13112
239.0,427.5015689940538,33.1832403328972,1.13155
240.0,427.458930551162,33.1586077973798,1.13185
241.0,427.43882441173326,33.1383624362685,1.13221
242.0,427.4177518188776,33.1095567242644,1.13278
243.0,427.3565574809819,33.0814195423932,1.13303
244.0,427.3331374225679,33.057883183229,1.13345
245.0,427.28483134504575,33.0293087204899,1.13381
246.0,427.2349499588716,32.9987213426307,1.13421
247.0,427.1962184239159,32.9801179777042,1.13439
248.0,427.1510617700551,32.951378899553,1.13478
249.0,427.0932491695977,32.9255624436815,1.135
250.0,427.0565414005172,32.9040810873327,1.13527
