Time (msec),Temperature (K),Pressure (bar),Volume (cm3)
0.0,835.95,31.3361022395453,5.69117
1.0,836.1800816079359,31.3298389087685,5.69649
2.0,835.8958419594654,31.3212882662121,5.69211
3.0,835.8794614565076,31.3119399935908,5.69305
4.0,835.6515493848971,31.3023274543253,5.68991
5.0,835.6612535208166,31.292072654719,5.69148
6.0,835.6054319413664,31.2886863831541,5.69085
7.0,835.6799017887386,31.2738454679798,5.6943
8.0,835.6548110097483,31.2539955772969,5.69649
9.0,834.9880659730037,31.236659995061,5.68585
10.0,835.13585348766,31.2185506057364,5.69117
11.0,834.8428500289682,31.1948968342805,5.68866
12.0,834.0551478987788,31.1831566792757,5.67492
13.0,832.7659715247123,31.1680697803842,5.65192
14.0,831.3920282647716,31.1492928559019,5.62783
15.0,829.0860549607214,31.1300686875537,5.5859
16.0,825.6704178047095,31.1114347644852,5.52285
17.0,821.8953574825,31.0918736529222,5.45355
18.0,818.2876665745384,31.0751514624926,5.38758
19.0,814.2041786051172,31.058489407189104,5.31323
20.0,809.050814625284,31.032876112196305,5.2209
21.0,803.791305793306,31.012549231641003,5.127
22.0,798.3987754280787,30.992379503136704,5.03176
23.0,791.1687709725624,30.973648562682804,4.90486
24.0,784.2904050913872,30.946620755633305,4.7871
25.0,776.241759855713,30.9245358005586,4.65053
26.0,767.7541440545142,30.9089310668046,4.5084
27.0,758.900179381894,30.890250340738703,4.36339
28.0,749.2873016181127,30.870390361560304,4.20933
29.0,738.3973495628255,30.854362437165005,4.03844
30.0,727.0705384170313,30.831568943717905,3.86607
31.0,715.0119797101904,30.806065495303603,3.68794
32.0,702.1727152636686,30.7880152625044,3.50339
33.0,688.2591681615229,30.767637450194005,3.3103
34.0,673.3410985753675,30.7406425592571,3.11142
35.0,657.3564076483979,30.724263482893704,2.90615
36.0,640.2558731162917,30.7088265708754,2.69633
37.0,621.8726328564658,30.697882504746804,2.48164
38.0,601.835450798873,30.671395650139004,2.2614
39.0,580.2692150448253,30.652420208869504,2.03843
40.0,556.5624781688889,30.6254488876889,1.81059
40.1,554.0982205780844,30.624278039608203,1.78783
40.2,551.5904344130573,30.620961482232502,1.76495
40.3,549.0526902094558,30.6190294089002,1.74193
40.4,546.4843566486837,30.6180691925034,1.71879
40.5,543.8867828583076,30.615887915797405,1.69564
40.6,541.2754135813594,30.613978299243804,1.67256
40.7,538.6472992003423,30.610513599197,1.6496
40.8,535.974289005394,30.606420257389903,1.62648
40.9,533.2875897522625,30.604194953903,1.60338
41.0,530.5774734391706,30.6031246363471,1.58025
41.1,527.8432372910306,30.6021676157403,1.55713
41.2,525.073346630112,30.598868077755803,1.53402
41.3,522.4752836902923,30.5962145848876,1.51253
41.4,520.3315827009889,30.5966684636482,1.49485
41.5,518.1953153226461,30.5975576272952,1.47735
41.6,515.4728877923818,30.595635456172403,1.45535
41.7,512.7985969697658,30.592501226965105,1.43399
41.8,510.7596729862395,30.588995935304403,1.41788
41.9,508.46631446421605,30.584158072897104,1.39993
42.0,505.8330134918226,30.582208481359,1.37938
42.1,503.4622805283805,30.581578692222404,1.36101
42.2,501.6061145561591,30.577977860331803,1.34684
42.3,500.1130006237162,30.574487714226105,1.33553
42.4,498.579868806486,30.5734172217266,1.3239
42.5,496.6936945237358,30.5737447566449,1.30963
42.6,494.5767630605982,30.5723191799476,1.29379
42.7,492.6302513239415,30.5705313342043,1.27935
42.8,490.9545375831278,30.568431832194204,1.26702
42.9,489.0847779569153,30.566522627899,1.25334
43.0,487.34143592285335,30.564455141651205,1.24068
43.1,486.1598294043153,30.561596275204803,1.23219
43.2,484.63913664062375,30.5588872436184,1.22129
43.3,482.6261825332911,30.5576077853868,1.20689
43.4,481.3641571223057,30.555713327924604,1.19795
43.5,480.4411194359563,30.553236874478504,1.19147
43.6,479.3265911857768,30.550446740143503,1.18367
43.7,478.1890061532444,30.5483905802308,1.17572
43.8,476.7285448709636,30.5487291264791,1.16548
43.9,475.1397051878153,30.548239270337003,1.15443
44.0,474.5835481477825,30.544419147747902,1.15068
44.1,474.1250532981558,30.5417833842991,1.14758
44.2,472.9024202529653,30.5401598433156,1.13919
44.3,471.4667244910168,30.537473843308703,1.12941
44.4,470.4065403935245,30.5355953899933,1.12222
44.5,469.8324834257674,30.534917026064,1.11833
44.6,469.1491578682138,30.5337742506643,1.11372
44.7,468.15599437964914,30.5325451253162,1.10703
44.8,467.1386586159195,30.5310676924875,1.10021
44.9,466.2286317137961,30.5294607591877,1.09414
45.0,465.5050576364951,30.5281495904734,1.08933
45.1,464.8174512989656,30.5273502379574,1.08476
45.2,464.2180811406985,30.5272853137542,1.08077
45.3,463.7303972929109,30.5276355911027,1.07752
45.4,463.142078801209,30.5268237917396,1.07364
45.5,462.51375916088745,30.524268115695005,1.06955
45.6,461.9374682158762,30.521438551283502,1.06582
45.7,461.482192638463,30.518781667061205,1.06289
45.8,461.2013951389764,30.5169656224345,1.06109
45.9,460.9709518948732,30.515250832896204,1.05962
46.0,460.5234354873421,30.512269750172305,1.05676
46.1,459.9735135672431,30.5098669225618,1.05322
46.2,459.49491502080656,30.5099444717619,1.05009
46.3,459.0716187905816,30.5110639411708,1.0473
46.4,458.7517469447221,30.510133320562,1.04524
46.5,458.3396612814038,30.506958240054203,1.04264
46.6,457.8628176575064,30.50076927675501,1.0397
46.7,457.5178913876805,30.495757871149003,1.03759
46.8,457.1770750036977,30.492703036559604,1.03546
46.9,456.803861342732,30.488189293822305,1.03316
47.0,456.5822548978799,30.4845440186236,1.03182
47.1,456.4211409359315,30.481751922871403,1.03085
47.2,456.18466528447857,30.478344392700805,1.02941
47.3,456.0773059903659,30.4778632675967,1.02873
47.4,455.9822672343727,30.4785689618174,1.0281
47.5,455.78071011336,30.475047221790803,1.02689
47.6,455.4694966839006,30.4689431838546,1.02504
47.7,455.0578193795865,30.468344573798497,1.02241
47.8,454.77140859359554,30.4716701301224,1.02049
47.9,454.55519611203937,30.470636969107105,1.01913
48.0,454.3469444514536,30.466052130556804,1.01791
48.1,454.2777550071453,30.462704407139704,1.01755
48.2,454.2051356675266,30.4613022143292,1.01712
48.3,453.9807006842261,30.4598729636935,1.01572
48.4,453.7225858762493,30.4586921921313,1.0141
48.5,453.4903739726375,30.4561675145096,1.01268
48.6,453.2784112946564,30.452436446023704,1.01142
48.7,453.089716074348,30.4515201137452,1.01024
48.8,452.973102528274,30.4510026569188,1.00951
48.9,452.83610335727934,30.448064351101404,1.00871
49.0,452.6292317204783,30.444553396859604,1.00748
49.1,452.4509314667648,30.442368824055805,1.0064
49.2,452.3081013607032,30.439612105995504,1.00556
49.3,452.1442888037438,30.4375596099066,1.00457
49.4,451.99859030527927,30.4385990012414,1.00362
49.5,451.9122596377835,30.448122726746185,1.00284
49.6,451.8863485807513,30.46886735505268,1.00217
49.7,451.816534261013,30.4806844952948,1.00144
49.8,451.67016914967496,30.472188726980413,1.00072
49.9,451.5063395634496,30.451348607834323,1.00019
50.0,451.3938883227985,30.429909392946914,1.0
51.0,452.32616827158034,30.404292887339604,1.00654
52.0,452.4542319403235,30.3861468836465,1.0078
53.0,452.7976127649931,30.3628824412382,1.01056
54.0,453.1354459548187,30.344100871794705,1.01318
55.0,453.5387799954362,30.3291363681475,1.01613
56.0,453.800520501265,30.311299235508,1.01825
57.0,454.0005567028542,30.287352114666604,1.02013
58.0,454.2235215738533,30.270632717517003,1.02198
59.0,454.40224254969326,30.2438651320094,1.0238
60.0,454.5682428501771,30.220335075951404,1.02546
61.0,454.7230530288039,30.2023845243463,1.02691
62.0,454.9309197208053,30.188582713270403,1.0286
63.0,455.1200905062303,30.1621875750324,1.03049
64.0,455.2788899398779,30.149861460746703,1.03183
65.0,455.32867584904943,30.133008044248403,1.03258
66.0,455.41004444879457,30.109685738577,1.0337
67.0,455.4729818535001,30.083299757918404,1.03478
68.0,455.5825390448617,30.0680616394644,1.03588
69.0,455.66334631569134,30.0467310774855,1.03695
70.0,455.8004425580244,30.0202385890597,1.03852
71.0,455.9386957963754,30.007386855045,1.03975
72.0,456.06392144850633,29.9873930735682,1.04108
73.0,456.1572139003696,29.9679175724457,1.04219
74.0,456.2676800017308,29.9555573710403,1.04323
75.0,456.2924961458178,29.9324003822425,1.04399
76.0,456.3376445766118,29.906307443946503,1.04496
77.0,456.4268780014904,29.8860048670579,1.04607
78.0,456.5076566013647,29.872866013472205,1.04694
79.0,456.5627662237566,29.8429008772126,1.04808
80.0,456.6206271293508,29.8267521241418,1.04888
81.0,456.6811488661843,29.806703390122603,1.0498
82.0,456.7340572492225,29.7855473209334,1.0507
83.0,456.80157470709577,29.768106120884703,1.0516
84.0,456.8482116538302,29.751945083656903,1.05233
85.0,456.8563612638552,29.7330114164956,1.05288
86.0,456.85925152685206,29.7082126215959,1.05355
87.0,456.8289642229635,29.687301675551005,1.0539
88.0,456.87943842219806,29.6710662449682,1.05466
89.0,456.9607131635261,29.645883921367705,1.05586
90.0,457.0887303801464,29.6301869044444,1.05712
91.0,457.1324532668106,29.609731315327902,1.05795
92.0,457.2112931449304,29.5958168200195,1.05884
93.0,457.2601399834433,29.574827364203905,1.05972
94.0,457.2861705860858,29.5643723720362,1.06017
95.0,457.2622299626099,29.539217620130803,1.06068
96.0,457.2973014426883,29.5212769252169,1.06139
97.0,457.3289388512518,29.5025097839834,1.0621
98.0,457.3695273326628,29.485248514522,1.06283
99.0,457.4167077533955,29.465539076049303,1.06367
100.0,457.448068559114,29.4475405917879,1.06436
101.0,457.46430075208906,29.431784416400102,1.06489
102.0,457.5123598466058,29.417976421772003,1.06558
103.0,457.4991068933496,29.396439198648203,1.06607
104.0,457.4933843724046,29.381997618900503,1.06642
105.0,457.5236788857472,29.367566397413903,1.06701
106.0,457.5530978011075,29.3455153889731,1.0678
107.0,457.5529497359853,29.3236034016067,1.06839
108.0,457.5866381386513,29.309338437786305,1.069
109.0,457.6144779668909,29.2925394320765,1.06964
110.0,457.6411303157085,29.2714093387147,1.07039
111.0,457.7460290802677,29.2603873501858,1.07139
112.0,457.7638786792705,29.238259555074,1.07211
113.0,457.7496268148124,29.2178234197508,1.07257
114.0,457.7757479208606,29.207343094107,1.07303
115.0,457.7892718980772,29.1908378841237,1.07357
116.0,457.77560714968246,29.173169174067503,1.07396
117.0,457.8096152614162,29.163564961985603,1.07445
118.0,457.841055350046,29.1456537386657,1.07515
119.0,457.8611342045297,29.1253474734494,1.07584
120.0,457.87667014825655,29.109067886704302,1.07639
121.0,457.8886903954317,29.0970522825261,1.0768
122.0,457.8678287892322,29.0748057813587,1.07727
123.0,457.86536934356593,29.057451765786706,1.07773
124.0,457.8426972446687,29.040624848096304,1.07804
125.0,457.8703671113243,29.0219517561684,1.07874
126.0,457.90979315685377,29.0087185790931,1.07937
127.0,457.9129359093742,28.993529634758,1.07981
128.0,457.94519552764,28.9771336652874,1.08048
129.0,457.910550801047,28.952399296222204,1.08093
130.0,458.0670242344933,28.9453807057873,1.08218
131.0,457.92057973688026,28.921969915219503,1.08184
132.0,457.9077101586066,28.902964100474502,1.08228
133.0,457.883666370204,28.8859405233955,1.08259
134.0,457.9023055823314,28.870673419301703,1.08314
135.0,457.92074201049576,28.851780706287503,1.08379
136.0,457.8735296811233,28.829893919201,1.08408
137.0,457.9182389424429,28.8238821278341,1.08455
138.0,457.9005406285849,28.798075370415106,1.08515
139.0,457.9624306285264,28.7819354740182,1.08602
140.0,458.0059595683959,28.768168826124903,1.0867
141.0,457.9824524602854,28.7439041825694,1.08722
142.0,457.96746276925205,28.727076789029,1.08759
143.0,457.8952801375963,28.702134274477302,1.0878
144.0,457.9154940918854,28.6874389111286,1.08835
145.0,457.9113925403116,28.668665940906504,1.08885
146.0,457.92860460203127,28.6511515718309,1.08946
147.0,457.8802850474396,28.6313320721244,1.08969
148.0,457.9215891213361,28.6214367633302,1.09025
149.0,457.9071681609467,28.600251750968305,1.09075
150.0,457.9002361340942,28.583014959374506,1.09119
151.0,457.87638838407423,28.5603117935224,1.09167
152.0,457.8719074296725,28.5451128412081,1.09207
153.0,457.8544539693899,28.5271619625855,1.09246
154.0,457.8441354979272,28.507771391280404,1.09294
155.0,457.7946112803451,28.484971418152405,1.09325
156.0,457.7699553299015,28.467804762699505,1.09357
157.0,457.7801965173345,28.453399885283503,1.09405
158.0,457.7840858021446,28.4350325894883,1.0946
159.0,457.7665652341869,28.422421843921605,1.09484
160.0,457.7654876473303,28.4081513338626,1.09524
161.0,457.7917757222127,28.3892466741018,1.09596
162.0,457.7553770099205,28.371454460373105,1.09622
163.0,457.80175190320585,28.3535572294926,1.09705
164.0,457.737607143156,28.333704066849,1.09718
165.0,457.7255555067754,28.315147785137302,1.09763
166.0,457.72424464010624,28.301954837793595,1.098
167.0,457.6597464955892,28.2855321619932,1.09803
168.0,457.66842228983165,28.2691780762001,1.09856
169.0,457.6578029937607,28.2544949654999,1.09891
170.0,457.66241747558814,28.2427555678558,1.09928
171.0,457.6555330201276,28.2217064686768,1.09984
172.0,457.65607781261366,28.2052169268275,1.10032
173.0,457.6453301357732,28.191593181488205,1.10064
174.0,457.6375805204248,28.175927220560503,1.10104
175.0,457.61583825111313,28.146603934730905,1.10174
176.0,457.6104439983271,28.1360152884756,1.10201
177.0,457.6395707974335,28.1181197738706,1.10273
178.0,457.6439376026364,28.0981694075148,1.10334
179.0,457.6444198108453,28.083507027408103,1.10377
180.0,457.6597329564631,28.0730532268683,1.10418
181.0,457.63546569136827,28.0553059797087,1.10453
182.0,457.6193204619663,28.0370949070811,1.10495
183.0,457.61813858875246,28.024830936801,1.1053
184.0,457.5364094163156,27.9997163894802,1.10547
185.0,457.549107986993,27.9863077859787,1.10595
186.0,457.5414297028852,27.97083820195409,1.10635
187.0,457.50567023349953,27.949446548010805,1.10673
188.0,457.4928027239615,27.9344877898833,1.10708
189.0,457.4857650598557,27.918190373425105,1.10751
190.0,457.4818147726765,27.900594634555706,1.108
191.0,457.47169890537714,27.880888787148702,1.10851
192.0,457.4533187459728,27.8684224934127,1.10875
193.0,457.4548400916945,27.855890755598,1.10913
194.0,457.43532597566616,27.838430947242102,1.10951
195.0,457.39420010631824,27.819638649513703,1.10978
196.0,457.3691885890351,27.8083588599328,1.10994
197.0,457.4016551673414,27.7929843380878,1.11062
198.0,457.3557672784844,27.774128282721,1.11086
199.0,457.35221797795725,27.7587900803721,1.11129
200.0,457.34226993662975,27.742642576097,1.1117
201.0,457.29997966307786,27.7189471839623,1.11211
202.0,457.28049653884256,27.7036303019346,1.11243
203.0,457.2683064418948,27.6896922453957,1.11276
204.0,457.2298385441065,27.670636990453403,1.11306
205.0,457.2183119792157,27.6582177275712,1.11335
206.0,457.2362075121819,27.6466364570291,1.11382
207.0,457.2009688372797,27.622012933974,1.11431
208.0,457.1735839801576,27.6039264415809,1.11466
209.0,457.1621913189285,27.590245611229903,1.11499
210.0,457.1136411981634,27.5719349535505,1.1152
211.0,457.0729880775632,27.5531384620706,1.11548
212.0,457.03961522532313,27.5320505713711,1.11588
213.0,457.0459038366815,27.5178637123496,1.11635
214.0,457.0320288544255,27.5010054363702,1.11676
215.0,456.99362568612327,27.4884379749539,1.11687
216.0,456.9790720671023,27.473438075931604,1.11722
217.0,457.03613188672455,27.4604550125521,1.11801
218.0,457.0543328737336,27.4411447175358,1.11872
219.0,457.0378583461074,27.425414792773104,1.11908
220.0,457.0255465819871,27.4073552952131,1.11954
221.0,457.00821948129897,27.3924467253755,1.11987
222.0,456.9839421343785,27.3775930117413,1.12015
223.0,456.9358188338676,27.3549349627296,1.1205
224.0,456.9150682414208,27.334663914818204,1.12097
225.0,392.6599882400328,15.2314671014498,1.12116
226.0,392.6943076555991,15.2314671014498,1.12144
227.0,392.75802893914494,15.2314671014498,1.12196
228.0,392.7874322878205,15.2314671014498,1.1222
229.0,392.8388783141571,15.2314671014498,1.12262
230.0,392.8952096093917,15.2314671014498,1.12308
231.0,392.9196967991458,15.2314671014498,1.12328
232.0,392.9392845105734,15.2314671014498,1.12344
233.0,392.9931413689392,15.2314671014498,1.12388
234.0,393.037195878145,15.2314671014498,1.12424
235.0,393.0677838927038,15.2314671014498,1.12449
236.0,393.127723581343,15.2314671014498,1.12498
237.0,393.1888690385807,15.2314671014498,1.12548
238.0,393.2120996827088,15.2314671014498,1.12567
239.0,393.2524415867566,15.2314671014498,1.126
240.0,393.3074408910415,15.2314671014498,1.12645
241.0,393.3514300527357,15.2314671014498,1.12681
242.0,393.3648693633668,15.2314671014498,1.12692
243.0,393.414953828586,15.2314671014498,1.12733
244.0,393.452814710708,15.2314671014498,1.12764
245.0,393.4857848057917,15.2314671014498,1.12791
246.0,393.6859374722129,15.2314671014498,1.12955
247.0,393.5834438676319,15.2314671014498,1.12871
248.0,393.6420177102703,15.2314671014498,1.12919
249.0,393.6688586460924,15.2314671014498,1.12941
250.0,393.7030149224664,15.2314671014498,1.12969
